#  Muon Pair Production Inelasticity (The energy fraction of the leading outgoing muon). 
#  First column: s [eV^2] 
#  Second column: Inelasticity [Dimensionless]
# 
1.122018454301965200e+16 5.000000000000000025e-01
1.258925411794171400e+16 5.000000000000000025e-01
1.412537544622749600e+16 5.000000000000000025e-01
1.584893192461110800e+16 5.000000000000000025e-01
1.778279410038922800e+16 5.000000000000000025e-01
1.995262314968882800e+16 5.000000000000000025e-01
2.238721138568346800e+16 5.000000000000000025e-01
2.511886431509572000e+16 5.000000000000000025e-01
2.818382931264449200e+16 5.000000000000000025e-01
3.162277660168379200e+16 5.000000000000000025e-01
3.548133892335760400e+16 5.000000000000000025e-01
3.981071705534985600e+16 5.000000000000000025e-01
4.466835921509616800e+16 5.043606291910203154e-01
5.011872336272714400e+16 5.831611883825991161e-01
5.623413251903491200e+16 6.161692913718274101e-01
6.309573444801943200e+16 6.412594961757184242e-01
7.079457843841402400e+16 6.623632948118139963e-01
7.943282347242788800e+16 6.809361539814583475e-01
8.912509381337440000e+16 6.976861357037116296e-01
1.000000000000000000e+17 7.130118138197601985e-01
1.122018454301965280e+17 7.271601174082660268e-01
1.258925411794171360e+17 7.402954976558394629e-01
1.412537544622749760e+17 7.525343502594048495e-01
1.584893192461111040e+17 7.639637269484443882e-01
1.778279410038922880e+17 7.746521541388627918e-01
1.995262314968882880e+17 7.846561579264396125e-01
2.238721138568346880e+17 7.940242918840391129e-01
2.511886431509571840e+17 8.027996663410610356e-01
2.818382931264449280e+17 8.110215244910503607e-01
3.162277660168379520e+17 8.187262194948849992e-01
3.548133892335760640e+17 8.259478058137219580e-01
3.981071705534985600e+17 8.327183856740520973e-01
4.466835921509616640e+17 8.390683040722740627e-01
5.011872336272714880e+17 8.450262539124043792e-01
5.623413251903490560e+17 8.506193318742355514e-01
6.309573444801943040e+17 8.558730710849057344e-01
7.079457843841402880e+17 8.608114667131320230e-01
7.943282347242789120e+17 8.654570037826603279e-01
8.912509381337441280e+17 8.698306919458252962e-01
1.000000000000000000e+18 8.739521089665441833e-01
1.122018454301965312e+18 8.778394528526244356e-01
1.258925411794171392e+18 8.815096015031901322e-01
1.412537544622749696e+18 8.849781782348751236e-01
1.584893192461110784e+18 8.882596213829709875e-01
1.778279410038922752e+18 8.913672562276709899e-01
1.995262314968882944e+18 8.943133676734394966e-01
2.238721138568346880e+18 8.971092723473632624e-01
2.511886431509572096e+18 8.997653890386522191e-01
2.818382931264449024e+18 9.022913066499540502e-01
3.162277660168379392e+18 9.046958490571744838e-01
3.548133892335760384e+18 9.069871364701674876e-01
3.981071705534985728e+18 9.091726430508841883e-01
4.466835921509616640e+18 9.112592506783324664e-01
5.011872336272714752e+18 9.132532988534376450e-01
5.623413251903491072e+18 9.151606308161389647e-01
6.309573444801942528e+18 9.169866360049624410e-01
7.079457843841401856e+18 9.187362890291418394e-01
7.943282347242788864e+18 9.204141853488541081e-01
8.912509381337440256e+18 9.220245738757475440e-01
1.000000000000000000e+19 9.235713867090754592e-01
1.122018454301965312e+19 9.250582662257352817e-01
1.258925411794171290e+19 9.264885897342652887e-01
1.412537544622749696e+19 9.278654918973090471e-01
1.584893192461110886e+19 9.291918851147965563e-01
1.778279410038922854e+19 9.304704780488186611e-01
1.995262314968882790e+19 9.317037924585395148e-01
2.238721138568346829e+19 9.328941785014627230e-01
2.511886431509571994e+19 9.340438286430370329e-01
2.818382931264449331e+19 9.351547903055543731e-01
3.162277660168379187e+19 9.362289773744779664e-01
3.548133892335760589e+19 9.372681806881155708e-01
3.981071705534985830e+19 9.382740775687609114e-01
4.466835921509616845e+19 9.392482405305059290e-01
5.011872336272714957e+19 9.401921452156044579e-01
5.623413251903490458e+19 9.411071776426044311e-01
6.309573444801943142e+19 9.419946408285481132e-01
7.079457843841402470e+19 9.428557608468388640e-01
7.943282347242789274e+19 9.436916923720991557e-01
8.912509381337440256e+19 9.445035237632790626e-01
1.000000000000000000e+20 9.452922817198534666e-01
1.122018454301965353e+20 9.460589355657232913e-01
1.258925411794171331e+20 9.468044011770325730e-01
1.412537544622749614e+20 9.475295446000837618e-01
1.584893192461110804e+20 9.482351853800792263e-01
1.778279410038922936e+20 9.489220996312891510e-01
1.995262314968882872e+20 9.495910228658414054e-01
2.238721138568346993e+20 9.502426526077908386e-01
2.511886431509571830e+20 9.508776508094273217e-01
2.818382931264449085e+20 9.514966460869377363e-01
3.162277660168379433e+20 9.521002357842464070e-01
3.548133892335760179e+20 9.526889878991864347e-01
3.981071705534985667e+20 9.532634428492744449e-01
4.466835921509616845e+20 9.538241151370114856e-01
5.011872336272714629e+20 9.543714948769119744e-01
5.623413251903490621e+20 9.549060492217380514e-01
6.309573444801943306e+20 9.554282236903276493e-01
7.079457843841402143e+20 9.559384434078889159e-01
7.943282347242789274e+20 9.564371142581377105e-01
8.912509381337440584e+20 9.569246239644622065e-01
1.000000000000000000e+21 9.574013430670472724e-01
1.122018454301965287e+21 9.578676259120489922e-01
1.258925411794171199e+21 9.583238114793882767e-01
1.412537544622749778e+21 9.587702242347267978e-01
1.584893192461111001e+21 9.592071749011188420e-01
1.778279410038922805e+21 9.596349611443573124e-01
1.995262314968882872e+21 9.600538682943235980e-01
2.238721138568346993e+21 9.604641699424460999e-01
2.511886431509571699e+21 9.608661285714630296e-01
2.818382931264449020e+21 9.612599960833143609e-01
3.162277660168379433e+21 9.616460143428713359e-01
3.548133892335760572e+21 9.620244156741405428e-01
3.981071705534985404e+21 9.623954233353853027e-01
4.466835921509616714e+21 9.627592518718063319e-01
5.011872336272714367e+21 9.631161077527815584e-01
5.623413251903490884e+21 9.634661894356935097e-01
6.309573444801943044e+21 9.638096880638905573e-01
7.079457843841402405e+21 9.641467875606144489e-01
7.943282347242789274e+21 9.644776651023810876e-01
8.912509381337440846e+21 9.648024913442768691e-01
1.000000000000000000e+22 9.651214308401202535e-01
