#  Inverse Compton Scattering Inelasticity (The energy fraction of the outgoing photon). 
#  First column: s [eV^2] 
#  Second column: Inelasticity [Dimensionless]
# 
2.039399336939988770e+12 5.136449060024503854e-01
2.256382241869944336e+12 5.279030893219094356e-01
2.499841065469411133e+12 5.417450108076119486e-01
2.773006358410648438e+12 5.551550485239813426e-01
3.079502858165528320e+12 5.681224032576992489e-01
3.423397587069460938e+12 5.806407390943093549e-01
3.809253819236830078e+12 5.927077562240067321e-01
4.242191632436055176e+12 6.043247256128638778e-01
4.727955848410704102e+12 6.154960106575874113e-01
5.272992263173803711e+12 6.262285954008685041e-01
5.884533178804582031e+12 6.365316341187809979e-01
6.570693371703008789e+12 6.464160323643204364e-01
7.340577770742465820e+12 6.558940657336582714e-01
8.204402274143883789e+12 6.649790394999760546e-01
9.173629308238535156e+12 6.736849898695707051e-01
1.026111992690109570e+13 6.820264258718971018e-01
1.148130446992070312e+13 6.900181096990471996e-01
1.285037404484275781e+13 6.976748726479582441e-01
1.438649537312859375e+13 7.050114628259340765e-01
1.611005185151220703e+13 7.120424221964491984e-01
1.804391402729032422e+13 7.187819881712513848e-01
2.021374307658984375e+13 7.252440173085024089e-01
2.264833131258447656e+13 7.314419276767214484e-01
2.537998424199682031e+13 7.373886570956140751e-01
2.844494923954559375e+13 7.430966347032075259e-01
3.188389652858489062e+13 7.485777635896160298e-01
3.574245885025856250e+13 7.538434125184978463e-01
4.007183698225079688e+13 7.589044150205407346e-01
4.492947914199726562e+13 7.637710743848714623e-01
5.037984328962825000e+13 7.684531732923133296e-01
5.649525244593600781e+13 7.729599870285353003e-01
6.335685437492027344e+13 7.773002999023950199e-01
7.105569836531484375e+13 7.814824211560371658e-01
7.969394339932900000e+13 7.855142068656550958e-01
8.938621374027551562e+13 7.894030782618599584e-01
1.002611199269011094e+14 7.931560425710521001e-01
1.124629653570971719e+14 7.967797135589191893e-01
1.261536611063177344e+14 8.002803319157549833e-01
1.415148743891760625e+14 8.036637852819701333e-01
1.587504391730121875e+14 8.069356277596086979e-01
1.780890609307933750e+14 8.101010987949530673e-01
1.997873514237885625e+14 8.131651413497040792e-01
2.241332337837348750e+14 8.161324193047074793e-01
2.514497630778582812e+14 8.190073350684812237e-01
2.820994130533460625e+14 8.217940418780418366e-01
3.164888859437390625e+14 8.244964631745519412e-01
3.550745091604756875e+14 8.271183043098672139e-01
3.983682904803980625e+14 8.296630663906698899e-01
4.469447120778628125e+14 8.321340750145829190e-01
5.014483535541725625e+14 8.345344264790290900e-01
5.626024451172501875e+14 8.368671284706785674e-01
6.312184644070928750e+14 8.391350030761217660e-01
7.082069043110385000e+14 8.413405554349521198e-01
7.945893546511800000e+14 8.434864025839960977e-01
8.915120580606452500e+14 8.455749275241430940e-01
1.000261119926901125e+15 8.476083903588409463e-01
1.122279574228861750e+15 8.495889357612169679e-01
1.259186531721067250e+15 8.515185999509022885e-01
1.412798664549650750e+15 8.533993172116348669e-01
1.585154312388012000e+15 8.552329259793238769e-01
1.778540529965823750e+15 8.570211745287688032e-01
1.995523434895775750e+15 8.587657262856552842e-01
2.238982258495238750e+15 8.604681647891290197e-01
2.512147551436473000e+15 8.621299983284617108e-01
2.818644051191350000e+15 8.637526642762667350e-01
3.162538780095280500e+15 8.653375331388005742e-01
3.548395012262647000e+15 8.668859123432124392e-01
3.981332825461870000e+15 8.683990497795474051e-01
4.467097041436517500e+15 8.698781371147888963e-01
5.012133456199616000e+15 8.713243128946484006e-01
5.623674371830392000e+15 8.727386654477677919e-01
6.309834564728818000e+15 8.741222356061135734e-01
7.079718963768274000e+15 8.754760192542875297e-01
7.943543467169690000e+15 8.768009697195957575e-01
8.912770501264342000e+15 8.780980000136731078e-01
1.000026111992690200e+16 8.793679849364270940e-01
1.122044566294655400e+16 8.806117630508207839e-01
1.258951523786861600e+16 8.818301385382474322e-01
1.412563656615439800e+16 8.830238829419094770e-01
1.584919304453801000e+16 8.841937368063643721e-01
1.778305522031613000e+16 8.853404112198092202e-01
1.995288426961572800e+16 8.864645892652547321e-01
2.238747250561036800e+16 8.875669273882134114e-01
2.511912543502262000e+16 8.886480566841969964e-01
2.818409043257139200e+16 8.897085841133710593e-01
3.162303772161069200e+16 8.907490936453397179e-01
3.548160004328450400e+16 8.917701473400577727e-01
3.981097817527676000e+16 8.927722863683628107e-01
4.466862033502307200e+16 8.937560319758415250e-01
5.011898448265404800e+16 8.947218863931861721e-01
5.623439363896181600e+16 8.956703336985327724e-01
6.309599556794633600e+16 8.966018406315264810e-01
7.079483955834092800e+16 8.975168573656078230e-01
7.943308459235478400e+16 8.984158182374862855e-01
8.912535493330129600e+16 8.992991424393563804e-01
1.000002611199268960e+17 9.001672346760599686e-01
1.122021065501234240e+17 9.010204857857810889e-01
1.258928022993440320e+17 9.018592733306434184e-01
1.412540155822018720e+17 9.026839621578083284e-01
1.584895803660380160e+17 9.034949049299443313e-01
1.778282021238192000e+17 9.042924426333163179e-01
1.995264926168152000e+17 9.050769050549918315e-01
2.238723749767616000e+17 9.058486112417047931e-01
2.511889042708840960e+17 9.066078699344164438e-01
2.818385542463718400e+17 9.073549799802663740e-01
3.162280271367648640e+17 9.080902307303497789e-01
3.548136503535029760e+17 9.088139024090868823e-01
3.981074316734254720e+17 9.095262664762501226e-01
4.466838532708885760e+17 9.102275859664960000e-01
5.011874947471984000e+17 9.109181158102731546e-01
5.623415863102759680e+17 9.115981031535034251e-01
6.309576056001212160e+17 9.122677876416263043e-01
7.079460455040672000e+17 9.129274017101820515e-01
7.943284958442058240e+17 9.135771708488218401e-01
8.912511992536710400e+17 9.142173138655723674e-01
1.000000261119926912e+18 9.148480431254222278e-01
1.122018715421892224e+18 9.154695647949302462e-01
1.258925672914098176e+18 9.160820790589933038e-01
1.412537805742676480e+18 9.166857803325845211e-01
1.584893453581037568e+18 9.172808574855232377e-01
1.778279671158849536e+18 9.178674940173960906e-01
1.995262576088809728e+18 9.184458682656684303e-01
2.238721399688273664e+18 9.190161535715375418e-01
2.511886692629498880e+18 9.195785184612227381e-01
2.818383192384375808e+18 9.201331268152110887e-01
3.162277921288306176e+18 9.206801380137129565e-01
3.548134153455687168e+18 9.212197071090433287e-01
3.981071966654912512e+18 9.217519849534878684e-01
4.466836182629543424e+18 9.222771183564966169e-01
5.011872597392642048e+18 9.227952501887805026e-01
5.623413513023418368e+18 9.233065195895846511e-01
6.309573705921869824e+18 9.238110619800321555e-01
7.079458104961329152e+18 9.243090092737052954e-01
7.943282608362716160e+18 9.248004899254045341e-01
8.912509642457367552e+18 9.252856291154454293e-01
1.000000026111992627e+19 9.257645488112086207e-01
1.122018480413957939e+19 9.262373678036045499e-01
1.258925437906163917e+19 9.267042019584794676e-01
1.412537570734742323e+19 9.271651641819831369e-01
1.584893218573103514e+19 9.276203645940144238e-01
1.778279436150915482e+19 9.280699105403219518e-01
1.995262341080875418e+19 9.285139067252654588e-01
2.238721164680339456e+19 9.289524552981381911e-01
2.511886457621564621e+19 9.293856558983908389e-01
2.818382957376441958e+19 9.298136057583771263e-01
3.162277686280371814e+19 9.302363998226705899e-01
3.548133918447753216e+19 9.306541306086122400e-01
3.981071731646978458e+19 9.310668886102200226e-01
4.466835947621609472e+19 9.314747620630497993e-01
5.011872362384707584e+19 9.318778371711851083e-01
5.623413278015483085e+19 9.322761981772030859e-01
6.309573470913935770e+19 9.326699271553744452e-01
7.079457869953395098e+19 9.330591044940292900e-01
7.943282373354782720e+19 9.334438086525751466e-01
8.912509407449433702e+19 9.338241164377855119e-01
1.000000002611199345e+20 9.342001026989242840e-01
1.122018456913164698e+20 9.345718406321732452e-01
1.258925414405370675e+20 9.349394018944977569e-01
1.412537547233948959e+20 9.353028564579062287e-01
1.584893195072310149e+20 9.356622727291409314e-01
1.778279412650122281e+20 9.360177177690356398e-01
1.995262317580065833e+20 9.363692569585913006e-01
2.238721141179546337e+20 9.367169542924382863e-01
2.511886434120771174e+20 9.370608723718657496e-01
2.818382933875648430e+20 9.374010725467243343e-01
3.162277662779578778e+20 9.377376147514080440e-01
3.548133894946930688e+20 9.380705577853153398e-01
3.981071708146185011e+20 9.383999590500502475e-01
4.466835924120816189e+20 9.387258747983114882e-01
5.011872338883913974e+20 9.390483596567019697e-01
5.623413254514689966e+20 9.393674676454776273e-01
6.309573447413090222e+20 9.396832519584900067e-01
7.079457846452601487e+20 9.399957640307926576e-01
7.943282349853988618e+20 9.403050544204971661e-01
8.912509383948639928e+20 9.406111730953569117e-01
1.000000000261119934e+21 9.409141673581576937e-01
1.122018454563076047e+21 9.412140856107074072e-01
1.258925412055291003e+21 9.415109772744756356e-01
1.412537544883869581e+21 9.418048830650173064e-01
1.584893192722230804e+21 9.420958496191708109e-01
1.778279410300042609e+21 9.423839202594650466e-01
1.995262315229986423e+21 9.426691399293432028e-01
2.238721138829466796e+21 9.429515487229283011e-01
2.511886431770691764e+21 9.432311876284508179e-01
2.818382931525569085e+21 9.435081010019574776e-01
3.162277660429499498e+21 9.437823258152276962e-01
3.548133892596851278e+21 9.440538983925961247e-01
3.981071705796105470e+21 9.443228628248014900e-01
4.466835921770736779e+21 9.445892531251540714e-01
5.011872336533833908e+21 9.448531106438508020e-01
5.623413252164610425e+21 9.451144630450696305e-01
6.309573445063062585e+21 9.453733490400479944e-01
7.079457844102521946e+21 9.456298027766505410e-01
7.943282347503908815e+21 9.458838622704546228e-01
8.912509381598560387e+21 9.461355584952737541e-01
1.000000000026112059e+22 9.463849171648978098e-01
